iter	Passed	Remaining
0	958	957398
1	1745	871050
2	2454	815609
3	3288	818773
4	4131	822160
5	4851	803761
6	5674	804987
7	6399	793541
8	7120	783995
9	7882	780405
10	8661	778772
11	9394	773496
12	10129	769028
13	10821	762159
14	11535	757494
15	12274	754861
16	12981	750655
17	13689	746849
18	14412	744125
19	15140	741892
20	15852	739035
21	16559	736138
22	17251	732816
23	17939	729540
24	18623	726315
25	19328	724068
26	20056	722765
27	20771	721054
28	21489	719533
29	22186	717374
30	22866	714764
31	23572	713069
32	24282	711553
33	24984	709854
34	25697	708514
35	26567	711419
36	27314	710920
37	28018	709320
38	28712	707501
39	29437	706491
40	30129	704738
41	30861	703928
42	31569	702608
43	32287	701512
44	32985	700030
45	33668	698262
46	34375	697015
47	35068	695525
48	35753	693915
49	36469	692925
50	37181	691873
51	37900	690946
52	38605	689798
53	39306	688594
54	40001	687290
55	40686	685858
56	41374	684501
57	42086	683540
58	42789	682455
59	43497	681467
60	44218	680676
61	44914	679512
62	45601	678232
63	46289	676985
64	46978	675764
65	47667	674566
66	48378	673689
67	49094	672882
68	49788	671788
69	50479	670659
70	51173	669582
71	51867	668515
72	52554	667366
73	53249	666341
74	53973	665670
75	54682	664821
76	55399	664079
77	56101	663152
78	56777	661930
79	57465	660857
80	58144	659692
81	58831	658624
82	59526	657658
83	60230	656803
84	60936	655959
85	61637	655081
86	62329	654104
87	63020	653124
88	63704	652075
89	64398	651142
90	65098	650272
91	65799	649408
92	66567	649210
93	67396	649585
94	68191	649611
95	68875	648575
96	69578	647729
97	70266	646739
98	70956	645778
99	71642	644780
100	72332	643834
101	73030	642952
102	73772	642468
103	74480	641675
104	75184	640855
105	75886	640019
106	76580	639123
107	77264	638150
108	77942	637124
109	78619	636102
110	79321	635288
111	80038	634589
112	80749	633845
113	81444	632984
114	82118	631956
115	82803	631018
116	83496	630150
117	84188	629273
118	84870	628323
119	85563	627465
120	86264	626663
121	86978	625961
122	87696	625284
123	88377	624345
124	89057	623402
125	89730	622413
126	90411	621491
127	91101	620630
128	91791	619768
129	92485	618941
130	93192	618201
131	93905	617502
132	94586	616589
133	95266	615677
134	95957	614839
135	96630	613887
136	97303	612939
137	97984	612046
138	98649	611057
139	99346	610270
140	100046	609501
141	100748	608747
142	101432	607885
143	102112	607002
144	102791	606112
145	103469	605226
146	104152	604370
147	104821	603430
148	105516	602648
149	106217	601900
150	106954	601351
151	107648	600563
152	108327	599696
153	109001	598803
154	109682	597948
155	110360	597078
156	111048	596267
157	111724	595390
158	112405	594546
159	113107	593814
160	113958	593859
161	114630	592964
162	115311	592120
163	115998	591307
164	116670	590421
165	117344	589552
166	118027	588724
167	118704	587869
168	119401	587117
169	120094	586345
170	120790	585587
171	121481	584805
172	122162	583980
173	122839	583136
174	123516	582289
175	124213	581543
176	124907	580782
177	125601	580023
178	126284	579215
179	126997	578544
180	127696	577806
181	128403	577109
182	129081	576281
183	129766	575485
184	130443	574654
185	131122	573837
186	131805	573037
187	132487	572234
188	133169	571429
189	133852	570632
190	134554	569918
191	135262	569231
192	135957	568485
193	136654	567748
194	137339	566965
195	138017	566152
196	138687	565308
197	139368	564510
198	140045	563701
199	140716	562867
200	141420	562163
201	142118	561438
202	142819	560725
203	143524	560026
204	144215	559276
205	144941	558657
206	145621	557865
207	146302	557076
208	146994	556327
209	147680	555560
210	148366	554793
211	149062	554063
212	149759	553336
213	150465	552643
214	151155	551892
215	151839	551119
216	152516	550323
217	153203	549566
218	153889	548802
219	154712	548526
220	155396	547755
221	156076	546970
222	156758	546193
223	157475	545541
224	158183	544853
225	158877	544121
226	159556	543336
227	160242	542575
228	160932	541828
229	161609	541039
230	162287	540255
231	162964	539468
232	163654	538724
233	164354	538014
234	165061	537327
235	165757	536604
236	166433	535815
237	167113	535043
238	167787	534252
239	168466	533478
240	169151	532723
241	169835	531963
242	170500	531149
243	171232	530539
244	171998	530035
245	172733	529435
246	173994	530436
247	174726	529814
248	175492	529297
249	176183	528550
250	176916	527928
251	177640	527282
252	178456	526906
253	179181	526257
254	180090	526145
255	181288	526868
256	181985	526128
257	182804	525739
258	183742	525687
259	184589	525369
260	185328	524742
261	186058	524089
262	186751	523329
263	187450	522588
264	188134	521807
265	188817	521023
266	189500	520240
267	190178	519443
268	190858	518653
269	191528	517835
270	192230	517108
271	192928	516368
272	193666	515733
273	194367	515003
274	195096	514345
275	195819	513672
276	196548	513011
277	197499	512929
278	198527	513040
279	199507	513020
280	200386	512732
281	201625	513358
282	203077	514512
283	204224	514875
284	205015	514336
285	205759	513680
286	206444	512874
287	207142	512102
288	207860	511379
289	208569	510636
290	209420	510236
291	210155	509555
292	211022	509190
293	211716	508408
294	212414	507635
295	213149	506950
296	213866	506221
297	214570	505465
298	215288	504739
299	215990	503978
300	216670	503164
301	217360	502376
302	218052	501592
303	218874	501107
304	219583	500362
305	220272	499572
306	220960	498781
307	221659	498014
308	222390	497319
309	223115	496612
310	223827	495874
311	224513	495081
312	225208	494308
313	225911	493551
314	226609	492785
315	227301	492007
316	227993	491227
317	228678	490435
318	229384	489689
319	230102	488967
320	230816	488238
321	231555	487561
322	232274	486841
323	232982	486099
324	233687	485350
325	234388	484595
326	235082	483824
327	235770	483043
328	236464	482273
329	237164	481515
330	237876	480784
331	238583	480042
332	239463	479646
333	240147	478857
334	240836	478077
335	241530	477309
336	242219	476533
337	242939	475816
338	243629	475041
339	244316	474262
340	245010	473495
341	245702	472725
342	246395	471958
343	247106	471225
344	247822	470503
345	248518	469742
346	249207	468970
347	249901	468207
348	250584	467422
349	251274	466652
350	251962	465879
351	252650	465106
352	253352	464359
353	254046	463599
354	254762	462878
355	255475	462151
356	256184	461419
357	256884	460670
358	257562	459881
359	258248	459107
360	258936	458338
361	259629	457578
362	260330	456833
363	261045	456112
364	261763	455397
365	262515	454739
366	263318	454170
367	264054	453484
368	264750	452729
369	265447	451977
370	266131	451203
371	266868	450519
372	267552	449747
373	268241	448981
374	269080	448467
375	269898	447916
376	270683	447309
377	271416	446616
378	272144	445914
379	272947	445335
380	273749	444752
381	274777	444535
382	276042	444694
383	277153	444600
384	278382	444688
385	279224	444155
386	280073	443630
387	280822	442947
388	281580	442277
389	282381	441674
390	283243	441163
391	284048	440564
392	284847	439954
393	285604	439279
394	286391	438649
395	287145	437970
396	287883	437264
397	288622	436559
398	289326	435802
399	290023	435035
400	290761	434330
401	291511	433641
402	292260	432951
403	292961	432191
404	293669	431440
405	294410	430737
406	295111	429978
407	295823	429233
408	296539	428495
409	297236	427730
410	297998	427058
411	298729	426342
412	299442	425600
413	300153	424854
414	300885	424140
415	301578	423369
416	302277	422608
417	302973	421843
418	303670	421079
419	304406	420371
420	305117	419626
421	305834	418892
422	306539	418140
423	307236	417378
424	307935	416617
425	308622	415843
426	309317	415078
427	310012	414315
428	310696	413537
429	311378	412757
430	312081	412006
431	312794	411266
432	313549	410583
433	314265	409849
434	314978	409110
435	315697	408379
436	316381	407603
437	317072	406837
438	317769	406079
439	318461	405315
440	319152	404549
441	319906	403864
442	320788	403339
443	321476	402569
444	322173	401812
445	322874	401059
446	323576	400308
447	324285	399566
448	324993	398823
449	325693	398069
450	326414	397342
451	327132	396611
452	327841	395870
453	328520	395093
454	329213	394332
455	329903	393568
456	330590	392802
457	331287	392047
458	331978	391285
459	332674	390531
460	333375	389781
461	334101	389062
462	334837	388353
463	335558	387627
464	336266	386886
465	336958	386128
466	337642	385360
467	338330	384598
468	339019	383836
469	339698	383064
470	340387	382303
471	341084	381552
472	341800	380821
473	342510	380085
474	343254	379386
475	343946	378630
476	344646	377883
477	345337	377126
478	346034	376375
479	346731	375626
480	347425	374872
481	348144	374147
482	348868	373426
483	349589	372702
484	350320	371990
485	351019	371242
486	351728	370506
487	352440	369773
488	353157	369046
489	353871	368315
490	354585	367584
491	355305	366860
492	356031	366142
493	356752	365418
494	357442	364663
495	358128	363905
496	358835	363167
497	359547	362435
498	360235	361679
499	360919	360919
500	361602	360158
501	362345	359458
502	363056	358725
503	363768	357994
504	364610	357390
505	365310	356646
506	365994	355887
507	366730	355180
508	367472	354477
509	368163	353725
510	368864	352983
511	369561	352237
512	370254	351489
513	370949	350741
514	371639	349990
515	372360	349268
516	373088	348552
517	373796	347818
518	374487	347068
519	375196	346335
520	375889	345587
521	376576	344834
522	377272	344090
523	377957	343335
524	378649	342587
525	379359	341856
526	380079	341133
527	380790	340403
528	381472	339647
529	382191	338924
530	382901	338193
531	383593	337446
532	384297	336710
533	384991	335966
534	385687	335223
535	386383	334480
536	387121	333774
537	387832	333046
538	388531	332306
539	389218	331556
540	389911	330812
541	390613	330075
542	391302	329328
543	391984	328574
544	392673	327827
545	393364	327083
546	394101	326376
547	394814	325650
548	395521	324918
549	396209	324171
550	396891	323420
551	397574	322669
552	398254	321916
553	398945	321172
554	399630	320424
555	400563	319874
556	401273	319145
557	401979	318414
558	402730	317717
559	403431	316981
560	404163	316270
561	404854	315527
562	405569	314802
563	406261	314060
564	406951	313316
565	407655	312583
566	408336	311833
567	409025	311089
568	409717	310348
569	410434	309626
570	411181	308926
571	411906	308209
572	412600	307470
573	413290	306727
574	413984	305988
575	414683	305252
576	415375	304512
577	416063	303769
578	416758	303031
579	417442	302286
580	418155	301561
581	418858	300829
582	419590	300119
583	420308	299397
584	421003	298660
585	421700	297925
586	422414	297201
587	423103	296460
588	423793	295720
589	424483	294980
590	425217	294270
591	425928	293545
592	426634	292816
593	427346	292092
594	428059	291368
595	428748	290628
596	429437	289888
597	430127	289149
598	430818	288410
599	431503	287668
600	432198	286933
601	432893	286199
602	433619	285483
603	434330	284760
604	435040	284034
605	435740	283303
606	436462	282586
607	437154	281849
608	437837	281107
609	438522	280366
610	439268	279665
611	439992	278949
612	440693	278218
613	441379	277479
614	442094	276758
615	442809	276036
616	443508	275305
617	444365	274672
618	445131	273982
619	445865	273272
620	446553	272534
621	447246	271799
622	447943	271066
623	448644	270337
624	449331	269598
625	450028	268866
626	450722	268133
627	451413	267397
628	452125	266675
629	452869	265970
630	453602	265260
631	454309	264534
632	455005	263802
633	455692	263065
634	456442	262364
635	457145	261636
636	457844	260906
637	458538	260174
638	459357	259511
639	460320	258930
640	461084	258236
641	461777	257502
642	462468	256766
643	463164	256034
644	463861	255303
645	464548	254566
646	465244	253835
647	465941	253104
648	466640	252374
649	467356	251653
650	468069	250931
651	468793	250214
652	469481	249479
653	470169	248743
654	470868	248014
655	471547	247275
656	472263	246554
657	472953	245820
658	473691	245112
659	474382	244379
660	475103	243661
661	475821	242942
662	476542	242224
663	477257	241503
664	477948	240771
665	478638	240037
666	479330	239305
667	480020	238573
668	480715	237842
669	481394	237104
670	482090	236375
671	482790	235647
672	483509	234929
673	484223	234209
674	484924	233482
675	485620	232752
676	486463	232094
677	487154	231362
678	487843	230630
679	488527	229895
680	489222	229166
681	489916	228436
682	490604	227703
683	491289	226970
684	491974	226236
685	492675	225510
686	493386	224789
687	494104	224070
688	494798	223341
689	495491	222612
690	496185	221883
691	496884	221156
692	497570	220424
693	498260	219693
694	498957	218966
695	499643	218235
696	500352	217513
697	501081	216800
698	501797	216081
699	502488	215352
700	503181	214623
701	503895	213904
702	504584	213174
703	505303	212457
704	505986	211724
705	506712	211010
706	507404	210282
707	508124	209565
708	508844	208848
709	509545	208124
710	510241	207397
711	510928	206667
712	511615	205937
713	512295	205205
714	513584	204715
715	514442	204052
716	515232	203362
717	515888	202619
718	516549	201878
719	517195	201131
720	517840	200384
721	518624	199692
722	519314	198962
723	519967	198219
724	520614	197474
725	521318	196751
726	521958	196003
727	522593	195254
728	523226	194505
729	523886	193766
730	524520	193017
731	525159	192271
732	525795	191524
733	526444	190782
734	527094	190040
735	527738	189297
736	528365	188548
737	529010	187805
738	529672	187069
739	530483	186386
740	531137	185647
741	531774	184902
742	532413	184159
743	533056	183417
744	533724	182684
745	534357	181939
746	534992	181195
747	535630	180453
748	536269	179711
749	536908	178969
750	537542	178226
751	538179	177484
752	538816	176743
753	539443	175998
754	540122	175271
755	540783	174538
756	541427	173800
757	542062	173059
758	542698	172319
759	543337	171580
760	543990	170845
761	544624	170105
762	545259	169366
763	545895	168627
764	546532	167889
765	547167	167150
766	547804	166412
767	548438	165674
768	549085	164939
769	549785	164221
770	550533	163517
771	551308	162821
772	551943	162084
773	552587	161349
774	553256	160622
775	553929	159897
776	554570	159162
777	555220	158430
778	555858	157695
779	556499	156961
780	557138	156226
781	557773	155491
782	558410	154757
783	559070	154029
784	559722	153299
785	560391	152574
786	561026	151840
787	561666	151108
788	562303	150375
789	562939	149642
790	563601	148916
791	564240	148184
792	564877	147452
793	565515	146720
794	566151	145988
795	566790	145257
796	567421	144525
797	568052	143792
798	568690	143062
799	569337	142334
800	570019	141615
801	570663	140887
802	571296	140156
803	571934	139426
804	572571	138697
805	573344	138001
806	573996	137275
807	574634	136546
808	575262	135816
809	575894	135086
810	576531	134358
811	577166	133629
812	577804	132902
813	578438	132173
814	579080	131447
815	579715	130720
816	580344	129991
817	580986	129265
818	581629	128540
819	582264	127814
820	582910	127090
821	583585	126372
822	584233	125649
823	584885	124926
824	585522	124201
825	586158	123476
826	586795	122751
827	587424	122025
828	588061	121301
829	588702	120577
830	589333	119852
831	589973	119129
832	590613	118406
833	591240	117680
834	591876	116957
835	592510	116234
836	593158	115513
837	593836	114798
838	594515	114084
839	595160	113363
840	595798	112642
841	596434	111920
842	597070	111198
843	597713	110477
844	598347	109755
845	598983	109034
846	599616	108313
847	600247	107591
848	600888	106871
849	601521	106150
850	602151	105429
851	602784	104709
852	603425	103990
853	604092	103275
854	604752	102560
855	605406	101844
856	606044	101125
857	606679	100406
858	607309	99686
859	607943	98967
860	608576	98248
861	609220	97531
862	609865	96815
863	610498	96097
864	611131	95378
865	611766	94661
866	612406	93944
867	613048	93228
868	613710	92515
869	614359	91800
870	615022	91088
871	615808	90393
872	616443	89677
873	617082	88961
874	617748	88249
875	618483	87547
876	619325	86860
877	619957	86144
878	620597	85429
879	621223	84712
880	621867	83997
881	622532	83286
882	623176	82572
883	623856	81863
884	624489	81148
885	625124	80433
886	625763	79719
887	626395	79004
888	627059	78294
889	627705	77581
890	628341	76867
891	628986	76155
892	629621	75441
893	630721	74783
894	631566	74094
895	632422	73406
896	633416	72733
897	634266	72043
898	635104	71352
899	635859	70651
900	636732	69962
901	637479	69260
902	638441	68581
903	639300	67890
904	640185	67201
905	641052	66510
906	641838	65811
907	642777	65127
908	643578	64428
909	644352	63727
910	645146	63027
911	645999	62333
912	646785	61632
913	647635	60937
914	648366	60230
915	649042	59519
916	650066	58839
917	651149	58163
918	652048	57471
919	652921	56775
920	653669	56069
921	654675	55384
922	655649	54696
923	656555	54002
924	657327	53296
925	658083	52589
926	659058	51899
927	659860	51196
928	660554	50483
929	661257	49772
930	661944	49059
931	662639	48347
932	663326	47634
933	664047	46924
934	664772	46214
935	665479	45502
936	666174	44790
937	666867	44078
938	667588	43368
939	668281	42656
940	668981	41944
941	669703	41234
942	670393	40522
943	671090	39810
944	671772	39097
945	672462	38385
946	673219	37677
947	673935	36966
948	674636	36255
949	675331	35543
950	676028	34832
951	676719	34120
952	677411	33408
953	678108	32697
954	678804	31985
955	679488	31273
956	680175	30561
957	680884	29850
958	681597	29140
959	682311	28429
960	683044	27719
961	683740	27008
962	684430	26296
963	685131	25585
964	685828	24874
965	686517	24163
966	687207	23451
967	687901	22740
968	688603	22029
969	689292	21318
970	690006	20607
971	690887	19902
972	691616	19191
973	692310	18480
974	693021	17769
975	693727	17058
976	694419	16347
977	695108	15636
978	695807	14925
979	696510	14214
980	697198	13503
981	697908	12792
982	698603	12081
983	699320	11371
984	700048	10660
985	700771	9950
986	701463	9239
987	702168	8528
988	702861	7817
989	703571	7106
990	704258	6395
991	704995	5685
992	705734	4974
993	706446	4264
994	707139	3553
995	707847	2842
996	708540	2132
997	709240	1421
998	709986	710
999	710708	0
